#  theta sf
 0 0
 0.687549 4.34452e-06
 1.3751 1.72879e-05
 2.06265 3.87582e-05
 2.7502 6.86831e-05
 3.43775 0.000106991
 4.1253 0.000153609
 4.81285 0.000208429
 5.50039 0.000271415
 6.18794 0.00034246
 6.87549 0.000421509
 7.56304 0.000508489
 8.25059 0.000603311
 8.93814 0.000705903
 9.62569 0.000816193
 10.3132 0.000934108
 11.0008 0.00105958
 11.6883 0.00119251
 12.3759 0.00133285
 13.0634 0.00148049
 13.751 0.00163541
 14.4385 0.0017975
 15.1261 0.00196668
 15.8136 0.00214289
 16.5012 0.00232607
 17.1887 0.00251611
 17.8763 0.00271298
 18.5638 0.00291656
 19.2514 0.00312681
 19.9389 0.00334366
 20.6265 0.00356701
 21.314 0.0037968
 22.0016 0.00403296
 22.6891 0.00427542
 23.3767 0.00452411
 24.0642 0.00477894
 24.7518 0.00503984
 25.4393 0.00530675
 26.1269 0.00557961
 26.8144 0.00585831
 27.502 0.00614281
 28.1895 0.00643301
 28.8771 0.00672887
 29.5646 0.0070303
 30.2522 0.00733723
 30.9397 0.00764958
 31.6273 0.00796731
 32.3148 0.0082903
 33.0024 0.00861852
 33.6899 0.00895187
 34.3775 0.00929031
 35.065 0.00963375
 35.7526 0.0099821
 36.4401 0.0103353
 37.1277 0.0106933
 37.8152 0.011056
 38.5028 0.0114234
 39.1903 0.0117954
 39.8779 0.0121718
 40.5654 0.0125527
 41.253 0.0129379
 41.9405 0.0133275
 42.6281 0.0137213
 43.3156 0.0141192
 44.0032 0.0145212
 44.6907 0.0149272
 45.3783 0.0153371
 46.0658 0.015751
 46.7534 0.0161686
 47.4409 0.0165899
 48.1285 0.017015
 48.816 0.0174436
 49.5036 0.0178757
 50.1911 0.0183113
 50.8787 0.0187503
 51.5662 0.0191925
 52.2538 0.0196381
 52.9413 0.0200868
 53.6288 0.0205386
 54.3164 0.0209934
 55.0039 0.0214512
 55.6915 0.021912
 56.379 0.0223755
 57.0666 0.0228418
 57.7541 0.0233108
 58.4417 0.0237824
 59.1292 0.0242565
 59.8168 0.0247332
 60.5043 0.0252122
 61.1919 0.0256936
 61.8794 0.0261773
 62.567 0.0266632
 63.2545 0.0271512
 63.9421 0.0276413
 64.6296 0.0281334
 65.3172 0.0286274
 66.0047 0.0291233
 66.6923 0.029621
 67.3798 0.0301204
 68.0674 0.0306214
 68.7549 0.0311241
 69.4425 0.0316282
 70.13 0.0321339
 70.8176 0.0326409
 71.5051 0.0331492
 72.1927 0.0336588
 72.8802 0.0341695
 73.5678 0.0346814
 74.2553 0.0351943
 74.9429 0.0357081
 75.6304 0.0362229
 76.318 0.0367385
 77.0055 0.0372549
 77.6931 0.037772
 78.3806 0.0382897
 79.0682 0.0388079
 79.7557 0.0393267
 80.4433 0.0398459
 81.1308 0.0403654
 81.8184 0.0408852
 82.5059 0.0414053
 83.1935 0.0419255
 83.881 0.0424458
 84.5686 0.0429661
 85.2561 0.0434864
 85.9437 0.0440065
 86.6312 0.0445265
 87.3188 0.0450461
 88.0063 0.0455655
 88.6939 0.0460845
 89.3814 0.046603
 90.069 0.047121
 90.7565 0.0476383
 91.4441 0.0481551
 92.1316 0.048671
 92.8192 0.0491862
 93.5067 0.0497005
 94.1943 0.0502139
 94.8818 0.0507262
 95.5694 0.0512375
 96.2569 0.0517476
 96.9445 0.0522566
 97.632 0.0527642
 98.3196 0.0532705
 99.0071 0.0537753
 99.6947 0.0542787
 100.382 0.0547806
 101.07 0.0552808
 101.757 0.0557793
 102.445 0.056276
 103.132 0.0567709
 103.82 0.0572639
 104.508 0.057755
 105.195 0.058244
 105.883 0.0587312
 106.57 0.0592164
 107.258 0.0596996
 107.945 0.0601809
 108.633 0.0606603
 109.32 0.0611378
 110.008 0.0616134
 110.695 0.0620871
 111.383 0.0625589
 112.071 0.0630288
 112.758 0.0634968
 113.446 0.063963
 114.133 0.0644273
 114.821 0.0648897
 115.508 0.0653503
 116.196 0.0658091
 116.883 0.066266
 117.571 0.0667211
 118.258 0.0671744
 118.946 0.0676259
 119.634 0.0680756
 120.321 0.0685234
 121.009 0.0689695
 121.696 0.0694139
 122.384 0.0698564
 123.071 0.0702972
 123.759 0.0707362
 124.446 0.0711735
 125.134 0.071609
 125.822 0.0720428
 126.509 0.0724748
 127.197 0.0729051
 127.884 0.0733337
 128.572 0.0737606
 129.259 0.0741858
 129.947 0.0746093
 130.634 0.0750311
 131.322 0.0754512
 132.009 0.0758696
 132.697 0.0762864
 133.385 0.0767015
 134.072 0.077115
 134.76 0.0775268
 135.447 0.0779369
 136.135 0.0783454
 136.822 0.0787523
 137.51 0.0791576
 138.197 0.0795612
 138.885 0.0799633
 139.573 0.0803637
 140.26 0.0807625
 140.948 0.0811598
 141.635 0.0815554
 142.323 0.0819495
 143.01 0.082342
 143.698 0.0827329
 144.385 0.0831223
 145.073 0.0835101
 145.76 0.0838964
 146.448 0.0842811
 147.136 0.0846643
 147.823 0.085046
 148.511 0.0854261
 149.198 0.0858047
 149.886 0.0861818
 150.573 0.0865574
 151.261 0.0869315
 151.948 0.0873041
 152.636 0.0876753
 153.324 0.0880449
 154.011 0.0884131
 154.699 0.0887798
 155.386 0.089145
 156.074 0.0895088
 156.761 0.0898711
 157.449 0.090232
 158.136 0.0905914
 158.824 0.0909494
 159.511 0.091306
 160.199 0.0916611
 160.887 0.0920148
 161.574 0.0923672
 162.262 0.0927181
 162.949 0.0930676
 163.637 0.0934157
 164.324 0.0937624
 165.012 0.0941078
 165.699 0.0944517
 166.387 0.0947943
 167.074 0.0951355
 167.762 0.0954754
 168.45 0.0958139
 169.137 0.0961511
 169.825 0.0964869
 170.512 0.0968213
 171.2 0.0971545
 171.887 0.0974863
 172.575 0.0978167
 173.262 0.0981459
 173.95 0.0984737
 174.638 0.0988003
 175.325 0.0991255
 176.013 0.0994494
 176.7 0.0997721
 177.388 0.100093
 178.075 0.100413
 178.763 0.100732
 179.45 0.10105
 180.138 0.101366
 180.825 0.101681
 181.513 0.101995
 182.201 0.102307
 182.888 0.102618
 183.576 0.102928
 184.263 0.103237
 184.951 0.103545
 185.638 0.103851
 186.326 0.104156
 187.013 0.10446
 187.701 0.104763
 188.389 0.105064
 189.076 0.105364
 189.764 0.105663
 190.451 0.105961
 191.139 0.106258
 191.826 0.106553
 192.514 0.106847
 193.201 0.107141
 193.889 0.107433
 194.576 0.107723
 195.264 0.108013
 195.952 0.108301
 196.639 0.108589
 197.327 0.108875
 198.014 0.10916
 198.702 0.109444
 199.389 0.109726
 200.077 0.110008
 200.764 0.110289
 201.452 0.110568
 202.14 0.110846
 202.827 0.111123
 203.515 0.111399
 204.202 0.111674
 204.89 0.111948
 205.577 0.112221
 206.265 0.112493
 206.952 0.112763
 207.64 0.113033
 208.327 0.113301
 209.015 0.113568
 209.703 0.113835
 210.39 0.1141
 211.078 0.114364
 211.765 0.114627
 212.453 0.114889
 213.14 0.11515
 213.828 0.11541
 214.515 0.115669
 215.203 0.115927
 215.89 0.116184
 216.578 0.11644
 217.266 0.116694
 217.953 0.116948
 218.641 0.117201
 219.328 0.117453
 220.016 0.117704
 220.703 0.117953
 221.391 0.118202
 222.078 0.11845
 222.766 0.118697
 223.454 0.118942
 224.141 0.119187
 224.829 0.119431
 225.516 0.119674
 226.204 0.119916
 226.891 0.120157
 227.579 0.120397
 228.266 0.120636
 228.954 0.120874
 229.641 0.121111
 230.329 0.121347
 231.017 0.121582
 231.704 0.121817
 232.392 0.12205
 233.079 0.122282
 233.767 0.122514
 234.454 0.122744
 235.142 0.122974
 235.829 0.123203
 236.517 0.123431
 237.205 0.123658
 237.892 0.123884
 238.58 0.124109
 239.267 0.124333
 239.955 0.124556
 240.642 0.124779
 241.33 0.125
 242.017 0.125221
 242.705 0.12544
 243.392 0.125659
 244.08 0.125877
 244.768 0.126095
 245.455 0.126311
 246.143 0.126526
 246.83 0.126741
 247.518 0.126954
 248.205 0.127167
 248.893 0.127379
 249.58 0.12759
 250.268 0.127801
 250.956 0.12801
 251.643 0.128219
 252.331 0.128427
 253.018 0.128634
 253.706 0.12884
 254.393 0.129045
 255.081 0.129249
 255.768 0.129453
 256.456 0.129656
 257.143 0.129858
 257.831 0.130059
 258.519 0.13026
 259.206 0.130459
 259.894 0.130658
 260.581 0.130856
 261.269 0.131054
 261.956 0.13125
 262.644 0.131446
 263.331 0.131641
 264.019 0.131835
 264.707 0.132028
 265.394 0.132221
 266.082 0.132413
 266.769 0.132604
 267.457 0.132794
 268.144 0.132983
 268.832 0.133172
 269.519 0.13336
 270.207 0.133547
 270.894 0.133734
 271.582 0.13392
 272.27 0.134105
 272.957 0.134289
 273.645 0.134473
 274.332 0.134655
 275.02 0.134838
 275.707 0.135019
 276.395 0.1352
 277.082 0.135379
 277.77 0.135559
 278.457 0.135737
 279.145 0.135915
 279.833 0.136092
 280.52 0.136268
 281.208 0.136444
 281.895 0.136619
 282.583 0.136793
 283.27 0.136967
 283.958 0.13714
 284.645 0.137312
 285.333 0.137483
 286.021 0.137654
 286.708 0.137824
 287.396 0.137994
 288.083 0.138163
 288.771 0.138331
 289.458 0.138498
 290.146 0.138665
 290.833 0.138831
 291.521 0.138996
 292.208 0.139161
 292.896 0.139325
 293.584 0.139489
 294.271 0.139651
 294.959 0.139814
 295.646 0.139975
 296.334 0.140136
 297.021 0.140296
 297.709 0.140456
 298.396 0.140615
 299.084 0.140773
 299.772 0.140931
 300.459 0.141088
 301.147 0.141244
 301.834 0.1414
 302.522 0.141555
 303.209 0.14171
 303.897 0.141864
 304.584 0.142017
 305.272 0.14217
 305.959 0.142322
 306.647 0.142473
 307.335 0.142624
 308.022 0.142774
 308.71 0.142924
 309.397 0.143073
 310.085 0.143222
 310.772 0.14337
 311.46 0.143517
 312.147 0.143664
 312.835 0.14381
 313.523 0.143955
 314.21 0.1441
 314.898 0.144245
 315.585 0.144388
 316.273 0.144532
 316.96 0.144674
 317.648 0.144816
 318.335 0.144958
 319.023 0.145099
 319.71 0.145239
 320.398 0.145379
 321.086 0.145519
 321.773 0.145657
 322.461 0.145795
 323.148 0.145933
 323.836 0.14607
 324.523 0.146207
 325.211 0.146343
 325.898 0.146478
 326.586 0.146613
 327.273 0.146747
 327.961 0.146881
 328.649 0.147014
 329.336 0.147147
 330.024 0.147279
 330.711 0.147411
 331.399 0.147542
 332.086 0.147673
 332.774 0.147803
 333.461 0.147933
 334.149 0.148062
 334.837 0.14819
 335.524 0.148318
 336.212 0.148446
 336.899 0.148573
 337.587 0.1487
 338.274 0.148826
 338.962 0.148951
 339.649 0.149076
 340.337 0.149201
 341.024 0.149325
 341.712 0.149448
 342.4 0.149571
 343.087 0.149694
 343.775 0.149816
